Incident energy;
Incident energy;
Incident energy;σ(E)
1.0E-5;169.7656
1.0625E-5;164.7597
1.125E-5;160.1786
1.1875E-5;155.9657
1.25E-5;152.0743
1.375E-5;145.107
1.5E-5;139.0343
1.625E-5;133.6805
1.75E-5;128.9145
1.875E-5;124.6365
2.0E-5;120.7689
2.1875E-5;115.606
2.375E-5;111.0721
2.5625E-5;107.0496
2.75E-5;103.4495
2.9375E-5;100.2033
3.125E-5;97.25676
3.3125E-5;94.56681
3.5E-5;92.09849
3.875E-5;87.71713
4.25E-5;83.93665
4.625E-5;80.63215
5.0E-5;77.71225
5.3125E-5;75.52277
5.625E-5;73.52142
5.9375E-5;71.68296
6.25E-5;69.98668
6.875E-5;66.95445
7.5E-5;64.31707
8.125E-5;61.99655
8.75E-5;59.9348
9.375E-5;58.08761
1.0E-4;56.4206
1.0625E-4;54.90664
1.125E-4;53.52393
1.1875E-4;52.25481
1.25E-4;51.08472
1.375E-4;48.99533
1.5E-4;47.1804
1.625E-4;45.58538
1.75E-4;44.16971
1.875E-4;42.90254
2.0E-4;41.75991
2.1875E-4;40.23922
2.375E-4;38.90824
2.5625E-4;37.73098
2.75E-4;36.68028
2.9375E-4;35.7352
3.125E-4;34.87934
3.3125E-4;34.09964
3.5E-4;33.38553
3.875E-4;32.12108
4.25E-4;31.03318
4.625E-4;30.08451
5.0E-4;29.24789
5.3125E-4;28.6215
5.625E-4;28.04958
5.9375E-4;27.52472
6.25E-4;27.04084
6.875E-4;26.17667
7.5E-4;25.42571
8.125E-4;24.76532
8.75E-4;24.17874
9.375E-4;23.65322
0.001;23.1789
0.0010625;22.74801
0.001125;22.35432
0.0011875;21.99279
0.00125;21.65929
0.001375;21.06318
0.0015;20.54464
0.001625;20.08822
0.00175;19.68246
0.001875;19.31867
0.002;18.9901
0.0021875;18.55193
0.002375;18.16754
0.0025625;17.82678
0.00275;17.52202
0.0029375;17.24735
0.003125;16.99812
0.0033125;16.77065
0.0035;16.56194
0.003875;16.19142
0.00425;15.87157
0.004625;15.59183
0.005;15.34452
0.0053125;15.15901
0.005625;14.98937
0.0059375;14.83347
0.00625;14.68955
0.006875;14.43198
0.0075;14.20751
0.008125;14.00959
0.00875;13.83341
0.009375;13.6753
0.01;13.53242
0.010625;13.40249
0.01125;13.28371
0.011875;13.17455
0.0125;13.07376
0.01375;12.89328
0.015;12.73581
0.01625;12.59687
0.0175;12.47316
0.01875;12.36211
0.02;12.26173
0.021325;12.16518
0.02265;12.07728
0.023975;11.99685
0.0253;11.92293
0.02684375;11.84394
0.0283875;11.77159
0.031475;11.64307
0.0345625;11.53187
0.03765;11.4346
0.0407375;11.34867
0.043825;11.27202
0.0469125;11.20309
0.05;11.14067
0.053125;11.08313
0.05625;11.03047
0.059375;10.98213
0.0625;10.93757
0.06875;10.85759
0.075;10.7875
0.08125;10.72563
0.0875;10.6705
0.09375;10.62095
0.1;10.5761
0.10625;10.53524
0.1125;10.4978
0.11875;10.46337
0.125;10.4317
0.1375;10.37468
0.15;10.32459
0.1625;10.28029
0.175;10.24074
0.1875;10.20511
0.2;10.17289
0.21875;10.12963
0.2375;10.09128
0.25625;10.05704
0.275;10.0262
0.29375;9.998192
0.3125;9.972593
0.33125;9.949053
0.35;9.927411
0.3875;9.888425
0.425;9.854108
0.5;9.796264
0.625;9.720928
0.75;9.661894
0.875;9.61314
1.0;9.571213
1.25;9.500398
1.5;9.440531
1.75;9.387295
2.0;9.338322
2.299529;9.283359
2.599058;9.231305
2.898587;9.181633
3.198115;9.134472
3.483604;9.092712
3.769092;9.056061
3.911837;9.040644
4.054581;9.029123
4.197325;9.027058
4.268697;9.036619
4.28654;9.04618
4.304383;9.066155
4.313305;9.084437
4.322226;9.112641
4.331148;9.155603
4.340069;9.218845
4.346797;9.282983
4.353525;9.362547
4.36698;9.563477
4.380435;9.788935
4.387163;9.890731
4.39389;9.972277
4.400685;10.02534
4.40748;10.04297
4.413131;10.02908
4.418782;9.99041
4.430084;9.852876
4.451655;9.501668
4.46244;9.34966
4.473225;9.23514
4.480037;9.18212
4.486849;9.141973
4.500472;9.090814
4.514096;9.064174
4.527719;9.050113
4.557237;9.037028
4.586755;9.032821
4.64579;9.032939
4.76386;9.050211
4.88193;9.080881
5.0;9.128487
5.103887;9.189734
5.207773;9.275519
5.311659;9.394397
5.415545;9.559527
5.519432;9.787587
5.571375;9.933955
5.623318;10.11128
5.675261;10.32481
5.727204;10.5833
5.779147;10.89854
5.83109;11.28628
5.879787;11.73458
5.928484;12.2895
5.977181;12.98368
6.025877;13.85855
6.074574;14.98212
6.098923;15.67061
6.123271;16.46487
6.14762;17.38543
6.171968;18.45867
6.196316;19.71877
6.220664;21.20998
6.246636;23.12107
6.272608;25.45554
6.29858;28.34187
6.324551;31.96083
6.350523;36.58184
6.363509;39.38996
6.376494;42.61926
6.38948;46.35897
6.402466;50.72149
6.415452;55.85247
6.428437;61.94384
6.437974;67.17739
6.44751;73.20287
6.457047;80.19731
6.466583;88.39113
6.471352;93.03267
6.47612;98.09896
6.480888;103.6495
6.485656;109.7546
6.490424;116.4993
6.495192;123.9878
6.497576;128.0501
6.49996;132.349
6.502344;136.9055
6.504728;141.7435
6.508178;149.2981
6.511627;157.5895
6.515077;166.7339
6.518526;176.8588
6.52157;186.7369
6.524613;197.6281
6.527657;209.6895
6.5307;223.0877
6.532932;233.884
6.535164;245.6014
6.537396;258.3414
6.539628;272.2167
6.54186;287.3522
6.544092;303.8863
6.546324;321.9711
6.548556;341.774
6.550585;361.4207
6.552614;382.7882
6.554643;406.0382
6.556672;431.3443
6.558701;458.8929
6.56073;488.8828
6.562759;521.5252
6.564788;557.0439
6.566817;595.6744
6.568846;637.6638
6.570875;683.2694
6.572904;732.7582
6.576962;844.4904
6.58102;975.1214
6.583252;1055.858
6.585484;1143.381
6.589948;1340.224
6.594412;1568.315
6.598875;1829.759
6.603339;2126.091
6.607803;2457.677
6.612267;2823.683
6.61673;3221.707
6.622412;3768.45
6.628093;4348.275
6.639456;5536.435
6.648384;6400.168
6.657311;7097.77
6.665796;7527.853
6.67428;7678.579
6.675793;7674.176
6.680827;7591.398
6.685861;7407.439
6.690895;7130.522
6.695928;6772.677
6.70643;5832.255
6.716932;4757.391
6.727435;3692.823
6.732686;3200.046
6.737937;2746.346
6.743188;2337.263
6.748439;1975.389
6.75369;1660.807
6.758941;1391.621
6.763477;1193.106
6.768012;1023.332
6.772547;879.2718
6.777082;757.8589
6.781617;656.0834
6.786152;571.1016
6.790687;500.3076
6.795222;441.3741
6.799757;392.2676
6.804292;351.2447
6.808827;316.8355
6.813362;287.8176
6.817897;263.1873
6.822432;242.1281
6.826967;223.9813
6.831502;208.2187
6.839618;184.6833
6.847733;165.6929
6.855849;150.0414
6.863964;136.9161
6.87208;125.7457
6.880195;116.1274
6.88831;107.7619
6.896425;100.4248
6.912656;88.18127
6.928886;78.40535
6.945117;70.45037
6.961347;63.87765
6.974714;59.27937
6.98808;55.27695
7.001447;51.76862
7.014813;48.6748
7.041546;43.48546
7.068279;39.32624
7.095012;35.93458
7.121745;33.12406
7.148478;30.76297
7.17521;28.75847
7.198124;27.27151
7.221038;25.96173
7.243952;24.80145
7.266866;23.76812
7.312694;22.01195
7.358522;20.58117
7.40435;19.3981
7.450178;18.40891
7.496006;17.57406
7.541833;16.85837
7.599118;16.1078
7.656403;15.50969
7.67529;15.32493
7.739955;14.6932
7.80462;14.17361
7.869285;13.74452
7.93395;13.37438
7.998615;13.05154
8.06328;12.76762
8.127945;12.51614
8.19261;12.29195
8.264905;12.06858
8.355275;11.82331
8.445645;11.61185
8.536015;11.4226
8.626384;11.25473
8.716754;11.10338
8.807123;10.96811
8.987862;10.73335
9.168601;10.53737
9.34934;10.37061
9.530079;10.22677
9.710818;10.10283
9.819262;10.03849
9.927705;9.985207
9.963853;9.972644
10.0;9.965266
10.02141;9.965414
10.04281;9.972151
10.05352;9.979893
10.06422;9.99253
10.07492;10.01271
10.08562;10.04458
10.09142;10.06884
10.09722;10.09962
10.10302;10.13848
10.10881;10.18711
10.11461;10.24776
10.12041;10.3226
10.12621;10.41405
10.132;10.52438
10.1378;10.65632
10.1436;10.81185
10.1494;10.99261
10.15519;11.1992
10.16099;11.43237
10.16678;11.69023
10.17837;12.27057
10.19443;13.14921
10.20246;13.57579
10.21048;13.9604
10.22009;14.33146
10.2297;14.56937
10.2395;14.64847
10.24926;14.5541
10.25902;14.29717
10.27135;13.78452
10.28367;13.13976
10.29806;12.33927
10.30525;11.95719
10.31244;11.60256
10.31963;11.28275
10.32682;11.00179
10.33401;10.76077
10.3412;10.5584
10.34583;10.44721
10.35045;10.34998
10.35507;10.26531
10.35969;10.19199
10.36431;10.12879
10.36893;10.07452
10.37355;10.02806
10.37817;9.988337
10.38742;9.925327
10.39666;9.879118
10.4059;9.844667
10.41514;9.818353
10.43466;9.779074
10.45417;9.751883
10.4932;9.713234
10.53223;9.684144
10.57125;9.659654
10.64931;9.617803
10.72736;9.581027
10.88347;9.514872
11.03958;9.457795
11.10531;9.440124
11.13818;9.438396
11.15461;9.443485
11.17104;9.457373
11.18337;9.477475
11.19569;9.509975
11.20186;9.532237
11.20802;9.559144
11.21418;9.591179
11.22034;9.628685
11.23267;9.72071
11.24499;9.833684
11.26964;10.09333
11.283;10.2226
11.29635;10.31729
11.30503;10.3518
11.3137;10.36123
11.32335;10.34117
11.333;10.29064
11.347;10.17314
11.36099;10.02309
11.38398;9.767254
11.39548;9.65615
11.40697;9.5635
11.41847;9.490076
11.42996;9.434449
11.44146;9.393578
11.45295;9.364169
11.46695;9.33927
11.48094;9.322198
11.50893;9.300156
11.56491;9.272402
11.67686;9.229911
11.90077;9.155449
12.34858;9.015889
12.89236;8.854112
13.43613;8.694562
13.97991;8.532796
14.52368;8.365082
14.79557;8.278123
15.06746;8.187851
15.33935;8.095207
15.61123;7.998848
15.88312;7.89775
16.15501;7.791894
16.4269;7.680781
16.69878;7.563961
16.95468;7.448489
17.21057;7.327574
17.46647;7.201455
17.72236;7.071041
17.97826;6.93831
18.10621;6.872259
18.23415;6.807481
18.3621;6.745196
18.49004;6.687123
18.61799;6.635678
18.74593;6.594345
18.8379;6.573625
18.92986;6.563319
19.02182;6.566955
19.11378;6.589594
19.20574;6.638263
19.2977;6.733642
19.34368;6.844117
19.36667;6.948505
19.38966;7.112881
19.41265;7.357728
19.43564;7.688075
19.48162;8.461806
19.50044;8.71282
19.51925;8.860922
19.5249;8.881391
19.5378;8.885194
19.5507;8.832894
19.57244;8.646128
19.59418;8.396421
19.61955;8.120178
19.64491;7.931732
19.67028;7.853517
19.69564;7.870116
19.74637;8.081108
19.79709;8.420864
19.84782;8.85562
19.89855;9.395949
19.94928;10.06628
20.0;10.90062
20.05681;12.08772
20.08521;12.80779
20.11361;13.63228
20.14202;14.58117
20.15622;15.10934
20.17042;15.67799
20.18462;16.291
20.19882;16.95269
20.21302;17.66789
20.22012;18.04722
20.22722;18.44199
20.236;18.95272
20.24477;19.48924
20.25354;20.05381
20.26231;20.64828
20.26942;21.15355
20.27652;21.68017
20.28362;22.23005
20.29071;22.80368
20.2974;23.36866
20.30408;23.95704
20.31076;24.57099
20.31744;25.21192
20.32454;25.92444
20.33164;26.67112
20.33874;27.4541
20.34584;28.27565
20.35294;29.13823
20.36004;30.04452
20.36714;30.99739
20.37424;31.99998
20.38427;33.50768
20.39429;35.13036
20.40432;36.8832
20.41434;38.77627
20.42437;40.82876
20.43439;43.05416
20.44442;45.47713
20.45444;48.11611
20.46363;50.7514
20.47282;53.61708
20.48201;56.7411
20.4912;60.15611
20.50039;63.90042
20.50958;68.01954
20.51877;72.56795
20.52795;77.60618
20.53714;83.22655
20.54633;89.52547
20.55552;96.63158
20.56471;104.7101
20.5739;113.9763
20.58309;124.7135
20.59228;137.2984
20.60146;152.2165
20.60731;163.246
20.61316;175.7148
20.61901;189.8857
20.62485;206.0433
20.6307;224.6167
20.63655;246.0243
20.6424;270.79
20.64824;299.4752
20.65409;332.8915
20.65994;371.8185
20.66579;417.2
20.67163;470.0082
20.67748;531.6216
20.68333;603.2856
20.68918;686.4544
20.69502;782.5199
20.69962;868.4417
20.70421;964.0949
20.70881;1070.753
20.7134;1188.813
20.718;1319.64
20.72259;1463.489
20.72719;1621.766
20.73178;1794.494
20.74097;2187.125
20.75016;2644.859
20.75935;3168.569
20.76853;3755.072
20.77939;4521.472
20.79025;5348.294
20.81197;7064.308
20.82784;8223.644
20.84371;9151.164
20.85468;9591.93
20.86565;9834.029
20.8718;9876.203
20.88323;9772.793
20.89466;9441.956
20.91079;8639.79
20.92692;7550.679
20.95273;5558.33
20.96563;4588.502
20.97853;3702.394
20.98983;3018.114
21.00112;2429.899
21.00677;2171.857
21.01241;1937.852
21.01806;1726.194
21.0237;1536.525
21.02935;1366.87
21.03499;1216.406
21.04064;1083.093
21.04628;965.8746
21.05193;862.8117
21.05757;772.7923
21.06322;694.0838
21.06886;625.64
21.0737;574.0357
21.07854;528.2628
21.08338;487.6655
21.08822;451.646
21.09306;419.6632
21.0979;391.2305
21.10757;343.3681
21.11725;305.0413
21.12693;274.0397
21.13661;248.6341
21.14628;227.5409
21.15596;209.7425
21.16564;194.5371
21.17532;181.3844
21.18499;169.8915
21.20435;150.6818
21.2237;135.2489
21.24145;123.5167
21.25919;113.5651
21.27693;105.0177
21.29467;97.60348
21.31242;91.11466
21.33016;85.40096
21.36564;75.8168
21.40113;68.11905
21.43661;61.82817
21.4721;56.60615
21.50758;52.218
21.53984;48.80268
21.5721;45.8304
21.60436;43.22241
21.63662;40.91707
21.66888;38.86642
21.70114;37.03282
21.76565;33.90074
21.83017;31.33213
21.89469;29.19421
21.95921;27.39121
22.02372;25.8533
22.07534;24.77781
22.12695;23.81756
22.23018;22.17823
22.33341;20.83709
22.43663;19.71823
22.53986;18.7671
22.64309;17.95244
22.74632;17.24784
22.84954;16.63271
23.00439;15.84372
23.15923;15.18106
23.31407;14.61633
23.46891;14.12893
23.62376;13.70357
23.7786;13.33064
23.93344;12.99982
24.01086;12.85003
24.04957;12.78629
24.08828;12.73588
24.13989;12.68699
24.1657;12.66185
24.1999;12.61539
24.2027;12.61067
24.20553;12.60575
24.21315;12.59176
24.22076;12.57673
24.23599;12.54377
24.27928;12.43723
24.32257;12.33219
24.36586;12.24314
24.40914;12.16835
24.58228;11.91464
24.75543;11.68648
24.92857;11.47707
25.27486;11.10423
25.62115;10.77783
25.92897;10.51686
26.23678;10.27767
26.5446;10.05558
26.69851;9.949255
26.77546;9.898848
26.81394;9.876021
26.85241;9.858165
26.8799;9.851308
26.90738;9.851651
26.93487;9.859761
26.96235;9.873159
26.99396;9.887041
27.02556;9.88746
27.0396;9.880729
27.06497;9.85671
27.08608;9.826664
27.10718;9.790799
27.14118;9.73023
27.17518;9.67673
27.20918;9.634891
27.24318;9.602884
27.31118;9.553599
27.37917;9.510154
27.65115;9.34355
28.21389;9.010446
28.77662;8.682665
29.33936;8.351879
29.90209;8.010503
30.18346;7.835072
30.46483;7.653227
30.7462;7.465114
31.02756;7.269812
31.30893;7.066372
31.5903;6.853899
31.87167;6.631579
32.15303;6.398802
32.41564;6.171835
32.67825;5.935828
32.94086;5.69211
33.20347;5.443572
33.46608;5.19461
33.59739;5.072983
33.72869;4.955625
33.86;4.845079
33.9913;4.74484
34.1226;4.659644
34.2539;4.596013
34.36645;4.565393
34.479;4.564946
34.59155;4.605067
34.70409;4.69947
34.81664;4.864264
34.92919;5.125224
34.98547;5.304949
35.04174;5.525395
35.06988;5.653149
35.09801;5.793919
35.12615;5.948986
35.15428;6.119541
35.16953;6.219002
35.18477;6.323626
35.20001;6.433739
35.21525;6.549617
35.23049;6.671555
35.24573;6.799864
35.26097;6.934875
35.26859;7.005002
35.27621;7.076937
35.28501;7.162325
35.2938;7.250162
35.30259;7.340622
35.31138;7.433785
35.31842;7.510405
35.32545;7.588744
35.32662;7.601963
35.32985;7.638725
35.33307;7.675774
35.33952;7.751203
35.34714;7.842451
35.35476;7.936072
35.36238;8.032133
35.37;8.130699
35.37938;8.255575
35.38876;8.384488
35.39814;8.517577
35.40752;8.654988
35.4169;8.796871
35.42628;8.943384
35.43566;9.094691
35.44503;9.250794
35.455;9.422532
35.46496;9.600121
35.48489;9.974497
35.50482;10.37592
35.52475;10.80658
35.54468;11.26888
35.56461;11.76547
35.58454;12.29927
35.60447;12.8735
35.63027;13.68278
35.65606;14.57419
35.68185;15.558
35.70764;16.64568
35.73344;17.85095
35.75923;19.1882
35.78502;20.67569
35.81081;22.33425
35.83661;24.1891
35.8624;26.26768
35.88819;28.60493
35.91398;31.24179
35.93977;34.22747
35.96556;37.62156
35.99135;41.49678
36.01714;45.94271
36.04294;51.07281
36.06873;57.02313
36.09452;63.97361
36.12031;72.15417
36.14611;81.87067
36.1719;93.51998
36.19769;107.6615
36.21059;115.9043
36.22348;125.0844
36.23579;134.878
36.2481;145.8482
36.26041;158.2095
36.27272;172.2329
36.28503;188.2656
36.29734;206.7563
36.30965;228.2898
36.32196;253.6327
36.33427;283.7912
36.34658;320.0853
36.35889;364.2377
36.3712;418.4785
36.38351;485.6622
36.39582;569.389
36.40198;618.856
36.40813;674.1188
36.41429;736.0646
36.42044;805.2602
36.42689;886.6281
36.43334;978.0143
36.43979;1080.514
36.44623;1195.096
36.45268;1323.322
36.45913;1466.267
36.46558;1625.198
36.47202;1801.093
36.47847;1995.739
36.48492;2210.064
36.49781;2701.642
36.51071;3283.78
36.5236;3959.631
36.53298;4510.622
36.54236;5109.435
36.56112;6433.649
36.59863;9359.723
36.62443;11253.09
36.63733;12048.44
36.65022;12691.73
36.66651;13239.88
36.6828;13452.67
36.69302;13406.38
36.70324;13222.92
36.72367;12474.95
36.74619;11168.46
36.76871;9541.711
36.80409;6830.73
36.82178;5580.619
36.83947;4472.869
36.84832;3980.555
36.85717;3531.278
36.86602;3124.916
36.87486;2760.796
36.88371;2436.279
36.89255;2149.724
36.9014;1897.712
36.91024;1677.812
36.91909;1486.424
36.92793;1320.892
36.93678;1177.85
36.94562;1054.799
36.95447;948.8425
36.96331;857.8432
36.97216;779.463
36.981;711.9981
36.98864;661.1402
36.99628;616.2121
37.01156;541.0203
37.02684;481.1678
37.04212;432.7591
37.0574;392.9476
37.07268;359.6703
37.08796;331.4343
37.10323;307.1698
37.11851;286.0491
37.13379;267.4969
37.16434;236.4152
37.1949;211.3878
37.22545;190.8396
37.25119;176.2003
37.27692;163.516
37.30265;152.4314
37.32838;142.6749
37.35412;134.0283
37.37985;126.326
37.43131;113.2096
37.48278;102.4778
37.53424;93.56016
37.5857;86.05191
37.63716;79.66069
37.71436;71.70205
37.79156;65.23838
37.86876;59.90123
37.94595;55.432
38.02315;51.64394
38.10035;48.40261
38.17755;45.60269
38.25474;43.15686
38.32551;41.16975
38.39627;39.39123
38.5378;36.34979
38.67933;33.85083
38.82085;31.76525
38.96238;30.00075
39.1039;28.49049
39.24543;27.1843
39.38695;26.04456
39.51562;25.12974
39.64428;24.31582
39.77294;23.57866
39.9016;22.90883
40.15892;21.74363
40.41624;20.76575
40.67356;19.93377
40.93088;19.2172
41.1882;18.59338
41.44552;18.04535
41.65137;17.65517
42.02449;17.03088
42.39761;16.49275
42.77073;16.02584
42.95729;15.8124
43.00393;15.76359
43.05057;15.71971
43.09721;15.68616
43.12053;15.67559
43.14384;15.67019
43.18244;15.67254
43.22103;15.68357
43.25481;15.69005
43.28858;15.6821
43.30807;15.66756
43.30947;15.6662
43.31454;15.66094
43.31961;15.65512
43.32974;15.64188
43.35407;15.60195
43.3784;15.553
43.40724;15.48876
43.4514;15.39177
43.47348;15.34843
43.49555;15.3098
43.51763;15.27579
43.53971;15.24585
43.58386;15.19499
43.67217;15.11068
43.76047;15.03354
44.1137;14.74745
44.46693;14.48677
44.64355;14.36384
44.73186;14.30484
44.82016;14.25051
44.849;14.23539
44.87783;14.22345
44.90667;14.21715
44.92109;14.21726
44.9355;14.22031
44.94992;14.22694
44.96434;14.23783
44.97876;14.25359
44.99317;14.27472
45.00759;14.30156
45.02201;14.3341
45.05084;14.41436
45.09049;14.54215
45.11032;14.60202
45.13014;14.65063
45.14366;14.67419
45.15718;14.68808
45.17603;14.68928
45.17743;14.68848
45.18191;14.68511
45.18638;14.6805
45.19533;14.66755
45.21858;14.61228
45.23436;14.55955
45.25013;14.49779
45.28168;14.36001
45.29496;14.3012
45.31655;14.21018
45.33814;14.12888
45.35973;14.05981
45.38131;14.0034
45.4029;13.95854
45.42448;13.92335
45.44607;13.89561
45.46765;13.8733
45.48924;13.85473
45.51083;13.83863
45.554;13.81058
45.64034;13.76102
45.98572;13.57825
46.3311;13.40895
46.50379;13.32795
46.59014;13.28996
46.63331;13.27315
46.67648;13.2599
46.70305;13.25452
46.72962;13.25181
46.75619;13.25182
46.78275;13.25402
46.82925;13.25897
46.8525;13.2592
46.87574;13.2561
46.89746;13.24932
46.90027;13.24814
46.90989;13.24359
46.9195;13.23824
46.94743;13.21853
46.97535;13.19403
46.99662;13.1736
47.03252;13.13889
47.06842;13.10722
47.10432;13.08035
47.14022;13.0581
47.17612;13.03927
47.21202;13.02255
47.28382;12.99203
47.57102;12.87797
48.14541;12.66507
48.7198;12.46736
49.007;12.37233
49.1506;12.3271
49.2224;12.30512
49.29419;12.28503
49.33674;12.27631
49.35802;12.27402
49.37929;12.27398
49.40057;12.27704
49.42184;12.28416
49.44311;12.29625
49.46438;12.314
49.48034;12.33118
49.4963;12.35152
49.52821;12.39949
49.56012;12.45066
49.59203;12.49396
49.60799;12.50889
49.62394;12.5176
49.6402;12.51917
49.64582;12.5179
49.66243;12.50868
49.68655;12.48148
49.7033;12.45437
49.72004;12.4222
49.75353;12.34967
49.79104;12.26918
49.80979;12.23344
49.82854;12.20199
49.84998;12.17159
49.87141;12.14687
49.89284;12.1271
49.91427;12.11133
49.93571;12.0986
49.95714;12.08807
50.0;12.07099
50.04762;12.05506
50.09523;12.0403
50.19046;12.01184
50.38091;11.9565
50.76181;11.84961
51.52362;11.6446
52.28543;11.44538
53.04724;11.25159
54.29312;10.93873
54.91606;10.78123
55.53899;10.61966
56.16193;10.45561
56.78487;10.28353
57.40781;10.10265
57.71928;10.00953
57.79715;9.987493
57.83608;9.978305
57.87501;9.971935
57.91395;9.970106
57.93342;9.971398
57.95288;9.974306
57.99181;9.984634
58.03074;9.998615
58.06943;10.01091
58.08877;10.0144
58.10811;10.0151
58.12878;10.01212
58.13721;10.00971
58.1537;10.00296
58.18513;9.983077
58.20739;9.964393
58.22965;9.943165
58.27416;9.898142
58.30559;9.868113
58.33701;9.841704
58.36843;9.819435
58.39985;9.800922
58.4267;9.787447
